TIME,POSITION,TORQUE,CONTROL_TORQUE,Q_CURRENT,FAULT,TRAJECTORY_COMPLETE,TEMPERATURE,MOTOR_TEMPERATURE,test_nr
0.0,-0.0302886962890625,-0.6989298462867737,-0.0,-0.27871888875961304,0,1,25.0,5.024687767028809,100
0.016,-0.0302886962890625,0.23326711356639862,0.0,0.09302213788032532,0,1,25.0,3.7718751430511475,100
0.032,-0.030242919921875,1.3869882822036743,0.6399999856948853,0.18559813499450684,0,1,25.0,2.7168750762939453,100
0.047,-0.0301513671875,1.455733299255371,1.2799999713897705,0.5805165767669678,0,1,25.0,-4.713593482971191,100
0.063,-0.0298919677734375,1.366860032081604,1.8799999952316284,0.5450757741928101,0,1,25.0,-2.3974218368530273,100
0.078,-0.0294189453125,2.287245273590088,2.5199999809265137,1.130935549736023,0,1,25.0,-13.071952819824219,100
0.094,-0.0287017822265625,2.7022459506988525,3.119999885559082,1.077523112297058,0,1,25.0,-11.762811660766602,100
0.11,-0.0277862548828125,2.118427038192749,3.759999990463257,0.844785213470459,0,1,25.0,-12.165624618530273,100
0.125,-0.0264739990234375,3.7075510025024414,4.400000095367432,1.5294523239135742,0,1,25.0,-9.245233535766602,100
0.141,-0.0247039794921875,4.205543041229248,5.0,1.6770843267440796,0,1,25.0,-11.460702896118164,100
0.157,-0.02252197265625,5.170810699462891,5.639999866485596,2.0620131492614746,0,1,25.0,-12.064921379089355,100
0.172,-0.0200653076171875,6.953264236450195,6.28000020980835,2.7728192806243896,0,1,25.0,-11.762811660766602,100
0.188,-0.018035888671875,9.014369010925293,6.880000114440918,3.594745397567749,0,1,25.0,-12.568437576293945,100
0.203,-0.01739501953125,10.050333023071289,7.519999980926514,4.058922290802002,0,1,25.0,-9.043828010559082,100
0.219,-0.017791748046875,7.733211040496826,8.119999885559082,3.083846092224121,0,1,25.0,8.717187881469727,100
0.235,-0.0181732177734375,8.070952415466309,8.760000228881836,3.2185301780700684,0,1,25.0,10.42984390258789,100
0.25,-0.018157958984375,9.12198543548584,9.399999618530273,3.6376607418060303,0,1,25.0,-8.741718292236328,100
0.266,-0.018035888671875,10.12453556060791,10.0,4.03745698928833,0,1,25.0,-4.713593482971191,100
0.282,-0.01800537109375,10.586905479431152,10.640000343322754,4.221840858459473,0,1,25.0,-2.1960153579711914,100
0.297,-0.01800537109375,11.416504859924316,11.279999732971191,4.55266809463501,0,1,25.0,-4.210078239440918,100
0.313,-0.0179443359375,11.864038467407227,11.880000114440918,4.731135368347168,0,1,25.0,-5.619921684265137,100
0.328,-0.017852783203125,12.398078918457031,12.520000457763672,4.86115837097168,0,1,25.0,-0.9875783920288086,100
0.344,-0.0177459716796875,13.14657211303711,13.119999885559082,5.242583274841309,0,1,25.0,-10.151561737060547,100
0.36,-0.017669677734375,14.01071834564209,13.760000228881836,5.587186813354492,0,1,25.0,-11.86351490020752,100
0.375,-0.017608642578125,14.435155868530273,14.399999618530273,5.756443977355957,0,1,25.0,-12.568437576293945,100
0.391,-0.0175018310546875,14.81216049194336,15.0,5.906702041625977,0,1,25.0,-12.669139862060547,100
0.407,-0.0173797607421875,15.82007884979248,15.640000343322754,6.308722972869873,0,1,25.0,-12.165624618530273,100
0.422,-0.017303466796875,16.364805221557617,16.280000686645508,6.525941371917725,0,1,25.0,-12.266327857971191,100
0.438,-0.0171966552734375,16.912111282348633,16.8799991607666,6.71638298034668,0,1,25.0,-11.359999656677246,100
0.453,-0.0170135498046875,17.36602020263672,17.520000457763672,6.925212383270264,0,1,26.0,-11.762811660766602,100
0.469,-0.0166473388671875,17.877010345458984,18.1200008392334,7.128985404968262,0,1,25.0,-8.338906288146973,100
0.485,-0.0162200927734375,19.16988754272461,18.760000228881836,7.644557952880859,0,1,25.0,-12.064921379089355,100
0.5,-0.015960693359375,19.137514114379883,18.760000228881836,7.685100555419922,0,1,25.0,-12.769843101501465,100
0.516,-0.01593017578125,19.534835815429688,19.399999618530273,7.7900919914245605,0,1,25.0,-13.172656059265137,100
0.532,-0.01593017578125,19.83091163635254,20.0,7.908204078674316,0,1,25.0,-12.669139862060547,100
0.547,-0.0158843994140625,20.941314697265625,20.639999389648438,8.350967407226562,0,1,25.0,-11.964218139648438,100
0.563,-0.015777587890625,21.4725284576416,21.280000686645508,8.45567512512207,0,1,25.0,-12.870546340942383,100
0.578,-0.015594482421875,21.931495666503906,21.8799991607666,8.829713821411133,0,1,25.0,-10.856484413146973,100
0.594,-0.015380859375,22.899255752563477,22.520000457763672,9.131753921508789,0,1,25.0,-9.950156211853027,100
0.61,-0.0151824951171875,23.672317504882812,23.1200008392334,9.440034866333008,0,1,25.0,-12.467734336853027,100
0.625,-0.014923095703125,23.711503982543945,23.760000228881836,9.45566177368164,0,1,25.0,-8.943124771118164,100
0.641,-0.01458740234375,24.525129318237305,24.399999618530273,9.717411041259766,0,1,25.0,-9.547343254089355,100
0.641,-0.01434326171875,25.47514533996582,25.0,10.098902702331543,0,1,25.0,-12.064921379089355,100
0.657,-0.0142364501953125,26.30896759033203,25.639999389648438,10.491476058959961,0,1,25.0,-12.568437576293945,100
0.672,-0.01422119140625,25.93169593811035,26.280000686645508,10.341028213500977,0,1,25.0,-11.259296417236328,100
0.688,-0.0141754150390625,26.972309112548828,26.8799991607666,10.756004333496094,0,1,25.0,-10.755781173706055,100
0.688,-0.0140838623046875,27.1069278717041,26.8799991607666,10.809686660766602,0,1,25.0,-11.359999656677246,100
0.703,-0.0139923095703125,27.493061065673828,27.520000457763672,10.963668823242188,0,1,25.0,-11.561406135559082,100
0.719,-0.013824462890625,28.207685470581055,28.1200008392334,11.248645782470703,0,1,25.0,-11.359999656677246,100
0.735,-0.013580322265625,28.093687057495117,28.760000228881836,11.20318603515625,0,1,25.0,-3.3037500381469727,100
0.75,-0.0133056640625,29.01458740234375,29.399999618530273,11.521034240722656,0,1,25.0,-10.4536714553833,100
0.766,-0.0128936767578125,30.45294189453125,30.0,12.14400863647461,0,1,25.0,-7.734687328338623,100
0.782,-0.0124969482421875,31.575729370117188,30.639999389648438,12.591753959655762,0,1,25.0,-11.86351490020752,100
0.797,-0.012237548828125,31.84702491760254,31.280000686645508,12.699939727783203,0,1,25.0,-12.064921379089355,100
0.813,-0.0121612548828125,31.807828903198242,31.8799991607666,12.684309959411621,0,1,25.0,-11.762811660766602,100
0.828,-0.0121002197265625,31.915130615234375,32.52000045776367,12.697935104370117,0,1,25.0,-11.460702896118164,100
0.844,-0.0119476318359375,32.84642791748047,33.119998931884766,13.098483085632324,0,1,25.0,-11.964218139648438,100
0.86,-0.011749267578125,33.7371826171875,33.7599983215332,13.483039855957031,0,1,25.0,-4.310781478881836,100
0.875,-0.0115203857421875,34.128944396972656,34.400001525878906,13.609923362731934,0,1,25.0,-12.266327857971191,100
0.891,-0.01116943359375,35.670989990234375,35.0,14.224860191345215,0,1,25.0,-12.165624618530273,100
0.907,-0.010833740234375,36.674171447753906,35.63999938964844,14.584802627563477,0,1,25.0,19.244998931884766,100
0.922,-0.0106658935546875,36.352996826171875,36.279998779296875,14.496829986572266,0,1,25.0,-12.467734336853027,100
0.938,-0.010650634765625,37.04347229003906,36.880001068115234,14.772177696228027,0,1,25.0,-12.568437576293945,100
0.953,-0.0106201171875,37.11569595336914,37.52000045776367,14.800978660583496,0,1,25.0,-12.870546340942383,100
0.969,-0.01055908203125,38.3272590637207,38.119998931884766,15.284128189086914,0,1,25.0,-12.568437576293945,100
0.985,-0.0103759765625,37.99618911743164,38.7599983215332,15.152101516723633,0,1,25.0,-11.964218139648438,100
1.0,-0.0101165771484375,38.80674362182617,39.400001525878906,15.475333213806152,0,1,25.0,-8.641016006469727,100
1.016,-0.0097503662109375,40.166709899902344,40.0,16.07048225402832,0,1,26.0,-11.259296417236328,100
1.032,-0.0091552734375,40.69242858886719,40.63999938964844,16.491609573364258,0,1,25.0,-12.769843101501465,100
1.047,-0.00848388671875,41.582637786865234,41.279998779296875,16.451309204101562,0,1,25.0,-12.36703109741211,100
1.063,-0.008087158203125,42.13147735595703,41.880001068115234,16.85981559753418,0,1,25.0,-6.425546646118164,100
1.078,-0.007843017578125,42.58301544189453,42.52000045776367,16.85737419128418,0,1,25.0,-11.359999656677246,100
1.094,-0.0075531005859375,44.05992126464844,43.119998931884766,17.570192337036133,0,1,26.0,-11.762811660766602,100
1.11,-0.0072479248046875,44.32341766357422,43.7599983215332,17.714719772338867,0,1,25.0,-4.512187480926514,100
1.125,-0.007049560546875,45.1245002746582,44.400001525878906,17.994726181030273,0,1,25.0,-8.238203048706055,100
1.141,-0.0070037841796875,45.25844192504883,45.0,18.048137664794922,0,1,25.0,-9.446640014648438,100
1.157,-0.006988525390625,45.8704948425293,45.63999938964844,18.292211532592773,0,1,25.0,-10.755781173706055,100
1.172,-0.006927490234375,46.324432373046875,46.279998779296875,18.473234176635742,0,1,26.0,-12.165624618530273,100
1.188,-0.0068359375,46.52277755737305,46.880001068115234,18.552330017089844,0,1,25.0,-11.15859317779541,100
1.203,-0.00665283203125,47.19916915893555,47.52000045776367,18.82206153869629,0,1,25.0,-10.95718765258789,100
1.219,-0.0063934326171875,48.07891845703125,48.119998931884766,19.172887802124023,0,1,25.0,-11.15859317779541,100
1.235,-0.0060272216796875,47.970542907714844,48.7599983215332,19.34889030456543,0,1,25.0,-11.561406135559082,100
1.25,-0.0053253173828125,49.95524978637695,49.400001525878906,19.97597885131836,0,1,25.0,-10.655077934265137,100
1.266,-0.0045928955078125,49.8085823059082,50.0,19.862640380859375,0,1,26.0,-12.165624618530273,100
1.282,-0.0042877197265625,51.095951080322266,50.63999938964844,20.387699127197266,0,1,26.0,-12.9712495803833,100
1.297,-0.004241943359375,51.580745697021484,51.279998779296875,20.56934356689453,0,1,25.0,-12.36703109741211,100
1.313,-0.00421142578125,51.56865310668945,51.880001068115234,20.56452178955078,0,1,25.0,-12.36703109741211,100
1.328,-0.0041046142578125,51.96724319458008,52.52000045776367,20.72347068786621,0,1,25.0,-11.561406135559082,100
1.344,-0.0038604736328125,53.52391815185547,53.119998931884766,21.344242095947266,0,1,25.0,-10.4536714553833,100
1.36,-0.003753662109375,53.472740173339844,53.7599983215332,21.32383155822754,0,1,25.0,-10.554374694824219,100
1.375,-0.0037384033203125,54.07846450805664,54.400001525878906,21.780223846435547,0,1,25.0,-10.755781173706055,100
1.391,-0.0037078857421875,54.9295768737793,55.0,21.815147399902344,0,1,25.0,-9.345937728881836,100
1.407,-0.003631591796875,55.94999313354492,55.63999938964844,22.311710357666016,0,1,25.0,-3.5051565170288086,100
1.422,-0.0035400390625,56.05317306518555,56.279998779296875,22.28063201904297,0,1,26.0,-7.130468368530273,100
1.438,-0.0034942626953125,56.45380401611328,56.279998779296875,22.512619018554688,0,1,25.0,-7.130468368530273,100
1.453,-0.00347900390625,56.15444564819336,56.880001068115234,22.494159698486328,0,1,25.0,-7.029765605926514,100
1.469,-0.0034332275390625,57.155303955078125,57.52000045776367,22.7923641204834,0,1,25.0,-6.828359127044678,100
1.485,-0.00335693359375,58.01365280151367,58.119998931884766,23.134654998779297,0,1,25.0,-6.828359127044678,100
1.5,-0.003326416015625,58.486671447753906,58.7599983215332,23.323284149169922,0,1,26.0,-8.741718292236328,100
1.516,-0.0032806396484375,59.235877990722656,59.400001525878906,23.905277252197266,0,1,26.0,-10.151561737060547,100
1.532,-0.0032196044921875,59.56802749633789,60.0,23.75450897216797,0,1,25.0,-12.870546340942383,100
1.547,-0.003173828125,60.46195602416992,60.63999938964844,24.11098861694336,0,1,25.0,-12.467734336853027,100
1.563,-0.003082275390625,61.45698928833008,61.279998779296875,24.598796844482422,0,1,26.0,-12.769843101501465,100
1.578,-0.0030059814453125,61.985984802246094,61.880001068115234,24.718738555908203,0,1,26.0,-10.95718765258789,100
1.578,-0.00286865234375,62.07929611206055,62.52000045776367,24.755950927734375,0,1,26.0,-11.662109375,100
1.594,-0.0026397705078125,62.65086364746094,63.119998931884766,24.98387908935547,0,1,26.0,-10.755781173706055,100
1.61,-0.0023956298828125,64.11322021484375,63.7599983215332,25.56703758239746,0,1,26.0,-11.662109375,100
1.625,-0.0022735595703125,63.805423736572266,64.4000015258789,25.860271453857422,0,1,26.0,-11.964218139648438,100
1.641,-0.002197265625,65.09174346923828,65.0,25.957252502441406,0,1,26.0,-11.964218139648438,100
1.672,-0.0021514892578125,66.31478881835938,65.63999938964844,26.444976806640625,0,1,26.0,-11.359999656677246,100
1.672,-0.002105712890625,66.06468963623047,66.27999877929688,26.34524154663086,0,1,26.0,-10.554374694824219,100
1.688,-0.002044677734375,67.18670654296875,66.87999725341797,26.792682647705078,0,1,26.0,-12.769843101501465,100
1.703,-0.001953125,68.15760040283203,67.5199966430664,27.179853439331055,0,1,26.0,-13.273359298706055,100
1.719,-0.0019073486328125,68.86017608642578,68.12000274658203,27.46002769470215,0,1,26.0,-10.655077934265137,100
1.735,-0.0018310546875,68.94365692138672,68.76000213623047,27.493316650390625,0,1,27.0,-13.071952819824219,100
1.75,-0.001739501953125,69.78315734863281,69.4000015258789,27.82809066772461,0,1,26.0,-13.071952819824219,100
1.766,-0.00164794921875,69.84754180908203,70.0,27.85376739501953,0,1,26.0,-12.568437576293945,100
1.782,-0.0015716552734375,70.44625854492188,70.63999938964844,28.092525482177734,0,1,26.0,-11.662109375,100
1.797,-0.0014801025390625,71.27519226074219,71.27999877929688,28.423086166381836,0,1,26.0,-12.266327857971191,100
1.813,-0.00140380859375,72.12448120117188,71.87999725341797,28.761764526367188,0,1,27.0,-12.064921379089355,100
1.828,-0.0013427734375,72.43302154541016,72.5199966430664,28.905006408691406,0,1,26.0,-11.662109375,100
1.844,-0.00128173828125,73.64630126953125,73.12000274658203,29.368633270263672,0,1,26.0,-12.064921379089355,100
1.86,-0.001190185546875,73.37000274658203,73.76000213623047,29.610151290893555,0,1,26.0,-11.964218139648438,100
1.875,-0.001068115234375,74.2320327758789,74.4000015258789,29.402311325073242,0,1,26.0,-11.86351490020752,100
1.891,-0.0009765625,74.50430297851562,75.0,29.71078872680664,0,1,27.0,-12.669139862060547,100
1.907,-0.0008544921875,75.82968139648438,75.63999938964844,30.239322662353516,0,1,26.0,-12.266327857971191,100
1.922,-0.000762939453125,76.43002319335938,76.27999877929688,30.478727340698242,0,1,26.0,-11.964218139648438,100
1.938,-0.000579833984375,76.40077209472656,76.87999725341797,30.467060089111328,0,1,26.0,-11.662109375,100
1.953,-0.00030517578125,78.0386962890625,77.5199966430664,31.120323181152344,0,1,26.0,-12.266327857971191,100
1.969,-0.000213623046875,78.2441177368164,78.12000274658203,31.202152252197266,0,1,26.0,-12.568437576293945,100
1.985,-0.0001373291015625,78.59687805175781,78.76000213623047,31.342824935913086,0,1,27.0,-11.460702896118164,100
2.0,-7.62939453125e-05,79.32857513427734,79.4000015258789,32.03778076171875,0,1,27.0,-8.741718292236328,100
2.016,-1.52587890625e-05,80.6863784790039,80.0,32.17607498168945,0,1,27.0,-10.755781173706055,100
2.032,4.57763671875e-05,80.42024230957031,80.0,32.03411102294922,0,1,27.0,-4.713593482971191,100
2.047,7.62939453125e-05,79.40084075927734,79.36000061035156,31.663427352905273,0,1,26.0,-6.929062366485596,100
2.063,0.0001068115234375,78.73867797851562,78.76000213623047,31.399372100830078,0,1,26.0,-8.137499809265137,100
2.078,0.0001220703125,77.56270599365234,78.12000274658203,30.930416107177734,0,1,27.0,-8.741718292236328,100
2.094,0.0001220703125,78.09683227539062,77.5199966430664,31.143413543701172,0,1,27.0,-8.943124771118164,100
2.11,0.0001220703125,77.15280151367188,76.87999725341797,30.8006649017334,0,1,27.0,-8.338906288146973,100
2.125,0.0001220703125,76.23289489746094,76.23999786376953,30.400115966796875,0,1,27.0,-8.238203048706055,100
2.141,0.0001373291015625,76.28688049316406,75.63999938964844,30.42164421081543,0,1,27.0,-8.540311813354492,100
2.157,0.0001373291015625,74.45335388183594,75.0,29.893699645996094,0,1,27.0,-7.633984088897705,100
2.172,0.0001373291015625,74.73389434814453,74.36000061035156,29.802343368530273,0,1,27.0,-8.741718292236328,100
2.188,0.0001373291015625,74.27650451660156,73.76000213623047,29.619949340820312,0,1,27.0,-8.943124771118164,100
2.203,0.0001373291015625,73.05191802978516,73.12000274658203,29.131607055664062,0,1,27.0,-8.238203048706055,100
2.219,0.0001373291015625,72.89873504638672,72.5199966430664,29.070518493652344,0,1,27.0,-8.036796569824219,100
2.235,0.0001373291015625,72.1099624633789,71.87999725341797,28.75597381591797,0,1,27.0,-8.540311813354492,100
2.25,0.0001373291015625,71.32167053222656,71.23999786376953,28.441617965698242,0,1,27.0,-9.245233535766602,100
2.266,0.0001373291015625,70.86354064941406,70.63999938964844,28.258926391601562,0,1,27.0,-8.43960952758789,100
2.282,0.0001373291015625,69.6636962890625,70.0,27.780452728271484,0,1,27.0,-7.835390567779541,100
2.297,0.0001373291015625,69.4094009399414,69.36000061035156,27.679044723510742,0,1,27.0,-8.036796569824219,100
2.313,0.0001373291015625,68.4446792602539,68.76000213623047,27.37564468383789,0,1,27.0,-8.338906288146973,100
2.328,0.0001373291015625,68.088134765625,68.12000274658203,27.15215301513672,0,1,27.0,-8.842421531677246,100
2.344,0.0001373291015625,68.11434173583984,67.5199966430664,27.162601470947266,0,1,28.0,-8.741718292236328,100
2.36,0.0001373291015625,66.63749694824219,66.87999725341797,26.573667526245117,0,1,27.0,-8.43960952758789,100
2.375,0.0001373291015625,67.0455093383789,66.23999786376953,26.736373901367188,0,1,27.0,-9.14453125,100
2.391,0.0001373291015625,65.72029876708984,65.63999938964844,26.207908630371094,0,1,27.0,-9.14453125,100
2.407,0.0001373291015625,65.54306030273438,65.0,26.137229919433594,0,1,27.0,-9.748749732971191,100
2.422,0.0001373291015625,64.49807739257812,64.36000061035156,25.650249481201172,0,1,27.0,-9.648046493530273,100
2.438,0.0001373291015625,64.06729125976562,64.36000061035156,25.548721313476562,0,1,27.0,-8.540311813354492,100
2.453,0.0001373291015625,63.73649215698242,63.7599983215332,25.578899383544922,0,1,27.0,-9.14453125,100
2.469,0.0001373291015625,63.35487747192383,63.119998931884766,25.264625549316406,0,1,27.0,-8.741718292236328,100
2.485,0.0001373291015625,62.53889083862305,62.52000045776367,25.09157371520996,0,1,27.0,-9.14453125,100
2.5,0.0001373291015625,61.623069763183594,61.880001068115234,24.574016571044922,0,1,28.0,-8.842421531677246,100
2.516,0.0001373291015625,61.370094299316406,61.2400016784668,24.473134994506836,0,1,27.0,-8.641016006469727,100
2.532,0.0001373291015625,60.679840087890625,60.63999938964844,24.1978759765625,0,1,27.0,-9.043828010559082,100
2.547,0.0001373291015625,60.02116012573242,60.0,23.985837936401367,0,1,27.0,-8.741718292236328,100
2.563,0.0001373291015625,59.354915618896484,59.36000061035156,23.669523239135742,0,1,27.0,-9.043828010559082,100
2.578,0.0001373291015625,59.079227447509766,58.7599983215332,23.55958366394043,0,1,28.0,-9.446640014648438,100
2.594,0.000152587890625,57.60466384887695,58.119998931884766,22.9715576171875,0,1,28.0,-8.338906288146973,100
2.61,0.0001373291015625,57.72886276245117,57.52000045776367,23.021087646484375,0,1,27.0,-8.943124771118164,100
2.61,0.0001373291015625,57.375911712646484,56.880001068115234,22.88033676147461,0,1,28.0,-8.641016006469727,100
2.625,0.0001373291015625,56.89262008666992,56.2400016784668,22.687610626220703,0,1,28.0,-9.345937728881836,100
2.641,0.0001373291015625,55.9471435546875,55.63999938964844,22.31057357788086,0,1,28.0,-9.547343254089355,100
2.657,0.0001373291015625,55.3105354309082,55.0,22.06697654724121,0,1,28.0,-7.130468368530273,100
2.672,0.0001373291015625,54.271305084228516,54.36000061035156,21.642284393310547,0,1,28.0,-8.741718292236328,100
2.688,0.0001373291015625,53.582942962646484,53.7599983215332,21.367778778076172,0,1,28.0,-4.512187480926514,100
2.703,0.0001373291015625,52.792110443115234,53.119998931884766,21.052410125732422,0,1,28.0,-7.231171607971191,100
2.719,0.0001373291015625,52.13343048095703,52.52000045776367,20.789743423461914,0,1,28.0,-7.130468368530273,100
2.735,0.0001373291015625,52.13389205932617,51.880001068115234,20.941482543945312,0,1,28.0,-6.828359127044678,100
